time/s,Ewe/V,<I>/mA
0.0,2.9077559,0.0
1.000000047497451,2.9078348,0.0
2.000000094994903,2.9079528,0.0
3.000000142492354,2.9079528,0.0
4.000000189989805,2.9080315,0.0
5.000000237487257,2.9081497,0.0
6.000000284984708,2.9081497,0.0
7.000000332482159,2.9081891,0.0
8.00000037997961,2.9082677,0.0
9.000000427477062,2.9082284,0.0
10.01000047544949,2.795892,-0.02176207637343837
10.01200047554448,2.794317,-10.98787732386799
25.01200118800625,2.7193868,-10.99129617644812
40.01200190046802,2.6931236,-10.9912323421972
55.01200261292979,2.6736331,-10.99114826779934
70.01200332539156,2.6581194,-10.99118426111937
85.01200403785333,2.6449289,-10.99130169440745
100.0120047503151,2.6336284,-10.991159824297
115.0120054627769,2.6235483,-10.99109913704403
130.0120061752386,2.6145709,-10.99131324848914
145.0120068877004,2.606499,-10.99133348761883
160.0120076001622,2.5991359,-10.99130038431331
175.0120083126239,2.5924816,-10.99128881103099
190.0120090250857,2.586221,-10.99136107118482
205.0120097375475,2.5805509,-10.99140021887787
220.0120104500093,2.5752354,-10.99141045549034
235.012011162471,2.5703135,-10.99146458324452
250.0120118749328,2.5657067,-10.99137551502671
265.0120125873946,2.5611787,-10.99140205743471
280.0120132998563,2.5570049,-10.99139811202067
295.0120140123181,2.5530281,-10.99132271872896
310.0120147247799,2.549248,-10.99127253079393
325.0120154372416,2.5454681,-10.9912194697562
340.0120161497034,2.5419242,-10.99135160984596
355.0120168621652,2.5383413,-10.99139995451936
370.012017574627,2.5351517,-10.99150950791483
385.0120182870887,2.5318444,-10.99145827131957
400.0120189995505,2.5287731,-10.99161958532253
415.0120197120123,2.5258987,-10.99151213407946
430.012020424474,2.5229456,-10.99136081089533
445.0120211369358,2.5200713,-10.99115273480963
460.0120218493976,2.5173545,-10.99130537991346
475.0120225618593,2.5145981,-10.99130563219209
490.0120232743211,2.5119994,-10.99127332221642
505.0120239867829,2.5094399,-10.99144723985138
520.0120246992446,2.5068018,-10.99137603929324
535.0120254117064,2.5044,-10.99149741608801
550.0120261241682,2.5018406,-10.9915373494815
565.01202683663,2.4993994,-10.99160381778075
580.0120275490917,2.4968796,-10.99145485691137
595.0120282615535,2.4945171,-10.99168999509396
610.0120289740153,2.4922726,-10.99160066747675
625.012029686477,2.4899495,-10.99145301988041
640.0120303989388,2.4877839,-10.99134530389736
655.0120311114006,2.4854608,-10.99153261887565
670.0120318238623,2.4833345,-10.99126070828472
685.0120325363241,2.4811296,-10.99131562123072
700.0120332487859,2.4790821,-10.99123916834332
715.0120339612477,2.4771132,-10.99113250102051
730.0120346737094,2.4750264,-10.99119109591213
745.0120353861712,2.4731364,-10.99112042305376
760.012036098633,2.4711282,-10.99113460508026
775.0120368110947,2.4692383,-10.99094386908163
790.0120375235565,2.4673483,-10.99131429943818
805.0120382360183,2.4653797,-10.99122208651125
820.01203894848,2.4636865,-10.9911038631994
835.0120396609418,2.4619145,-10.99079962813695
850.0120403734036,2.4601822,-10.99075550137411
865.0120410858653,2.4583316,-10.99063333951468
880.0120417983271,2.4566777,-10.99074919580698
895.0120425107889,2.4548271,-10.99064541938878
910.0120432232508,2.4532521,-10.99063990320964
925.0120439357124,2.4515197,-10.99063964609905
940.0120446481742,2.4499447,-10.99077284845479
955.012045360636,2.4482515,-10.99082696845242
970.0120460730976,2.4467554,-10.99084193656084
985.0120467855596,2.4451804,-10.99087819589241
1000.012047498021,2.4436054,-10.99116271253132
1015.012048210483,2.4420304,-10.99121105656894
1030.012048922945,2.4405341,-10.99118399739664
1045.012049635407,2.4390771,-10.9911895158646
1060.012050347868,2.4375415,-10.99102111657044
1075.01205106033,2.4359665,-10.99117900128787
1090.012051772792,2.4344704,-10.99115693288377
1105.012052485254,2.4331317,-10.9910536865813
1120.012053197715,2.4317141,-10.99095017375866
1135.012053910177,2.4303753,-10.99105632113826
1150.012054622639,2.4291942,-10.99106550565728
1165.012055335101,2.4277766,-10.99118557312085
1180.012056047563,2.4265561,-10.99108994400552
1195.012056760024,2.4253354,-10.99099982598307
1210.012057472486,2.4239967,-10.99106997711804
1225.012058184948,2.4229729,-10.99090498994326
1240.01205889741,2.4217522,-10.99088843962565
1255.012059609871,2.4204528,-10.99087897777816
1270.012060322333,2.4194686,-10.99099457937585
1285.012061034795,2.4181297,-10.99101269435506
1300.012061747257,2.4171062,-10.99089448210583
1315.012062459718,2.4160824,-10.99070137959628
1330.01206317218,2.4149404,-10.99082801406089
1345.012063884642,2.4138772,-10.99109335625206
1360.012064597104,2.4126568,-10.99116560547043
1375.012065309566,2.4116724,-10.99096383444323
1390.012066022027,2.410491,-10.99102321338227
1405.012066734489,2.4093885,-10.99112935173375
1420.012067446951,2.4084041,-10.9910444985019
1435.012068159413,2.4074593,-10.99099668254551
1450.012068871874,2.4063172,-10.99104896551219
1465.012069584336,2.4054117,-10.99110570798691
1480.012070296798,2.4044666,-10.99103870130674
1495.01207100926,2.4036791,-10.99113827888787
1510.012071721721,2.402813,-10.99110780823197
1525.012072434183,2.4018285,-10.99115667386584
1540.012073146645,2.4010017,-10.99107365753779
1555.012073859107,2.4001749,-10.99110991025722
1570.012074571569,2.3991904,-10.99104790680659
1585.01207528403,2.3983636,-10.99111752629995
1600.012075996492,2.3975761,-10.9911755797589
1615.012076708954,2.3967886,-10.99122761324439
1630.012077421416,2.3958831,-10.99127042800574
1645.012078133877,2.3951743,-10.99141046286542
1660.012078846339,2.3943868,-10.99153287878368
1675.012079558801,2.3935993,-10.99158674421386
1690.012080271263,2.3928118,-10.99145512330438
1705.012080983724,2.3919849,-10.9915686174091
1720.012081696186,2.3912368,-10.99151318439273
1735.012082408648,2.3904886,-10.99154497048334
1750.01208312111,2.3897798,-10.99139968520175
1765.012083833572,2.3890319,-10.99121053230241
1780.012084546033,2.3883231,-10.9912903964191
1795.012085258495,2.3875356,-10.99146011470836
1810.012085970957,2.3867481,-10.99148822839009
1825.012086683419,2.3859212,-10.991322709828
1840.01208739588,2.3852124,-10.99121000256814
1855.012088108342,2.3844249,-10.99116902191314
1870.012088820804,2.3838344,-10.99131009996532
1885.012089533266,2.3830469,-10.99114327436086
1900.012090245727,2.3824956,-10.99120396517422
1915.012090958189,2.3817475,-10.99121999465852
1930.012091670651,2.38096,-10.9912073781837
1945.012092383113,2.3804088,-10.99125808453607
1960.012093095575,2.3793061,-10.99105500405052
1975.012093808036,2.3785975,-10.99111490051679
1990.012094520498,2.3777707,-10.99117637334305
2005.01209523296,2.3770618,-10.99101296964903
2020.012095945422,2.376235,-10.9911495822168
2035.012096657883,2.3755655,-10.99103057562048
2050.012097370345,2.3748174,-10.99108547076456
2065.012098082807,2.3740695,-10.99098196162947
2080.012098795269,2.3734,-10.99091339664554
2095.01209950773,2.3726912,-10.99095543753201
2110.012100220192,2.371825,-10.9910132294299
2125.012100932654,2.3709981,-10.99115508873204
2140.012101645116,2.3704863,-10.99118320343102
2155.012102357578,2.3696988,-10.99099930553123
2170.012103070039,2.3690293,-10.99101217975242
2185.012103782501,2.3684781,-10.99084561596333
2200.012104494963,2.3676119,-10.99073212071421
2215.012105207425,2.3671,-10.99079596488334
2230.012105919886,2.3664701,-10.99079570014336
2245.012106632348,2.3658006,-10.99092100963651
2260.01210734481,2.3650918,-10.99077126891588
2275.012108057272,2.3643832,-10.99089369767695
2290.012108769733,2.3639107,-10.99075444851771
2305.012109482195,2.3633201,-10.99083405882989
2320.012110194657,2.36269,-10.99079491177263
2335.012110907119,2.3619025,-10.99081567160847
2350.012111619581,2.3613119,-10.99091996771558
2365.012112332042,2.3604851,-10.99099378528308
2380.012113044504,2.3599339,-10.99104554156724
2395.012113756966,2.359107,-10.99108416715541
2410.012114469428,2.3584769,-10.99092679615052
2425.012115181889,2.3579257,-10.99085533568435
2440.012115894351,2.3571775,-10.99094754962854
2455.012116606813,2.3565869,-10.99096015453211
2470.012117319275,2.3559568,-10.99102163676796
2485.012118031736,2.3552876,-10.99094649677214
2500.012118744198,2.3545394,-10.99080805378555
2515.01211945666,2.3538702,-10.99087556642171
2530.012120169122,2.3532007,-10.99090156777851
2545.012120881584,2.3524919,-10.99073685284594
2560.012121594045,2.3517833,-10.99086321812009
2575.012122306507,2.3511531,-10.99083825461521
2590.012123018969,2.3503656,-10.9908810815836
2605.012123731431,2.3495781,-10.99083352617102
2620.012124443892,2.3489089,-10.99088765036482
2635.012125156354,2.3484364,-10.99102504596275
2650.012125868816,2.3476882,-10.99096909414757
2665.012126581278,2.3471763,-10.99086032696117
2680.012127293739,2.3466644,-10.99088265641771
2695.012128006201,2.3459952,-10.99082065449296
2710.012128718663,2.345365,-10.99086768767351
2725.012129431125,2.3447745,-10.99098249441549
2740.012130143587,2.344105,-10.99107812009759
2755.012130856048,2.3433964,-10.99098669808452
2770.01213156851,2.3427663,-10.99088370863832
2785.012132280972,2.3421757,-10.99113355260534
2800.012132993434,2.3415458,-10.99105131867166
2815.012133705895,2.340955,-10.99118268590379
2830.012134418357,2.3402858,-10.99109361870322
2845.012135130819,2.3397739,-10.99103109124037
2860.012135843281,2.3391833,-10.99092022660636
2875.012136555742,2.3386714,-10.99108101519837
2890.012137268204,2.338002,-10.99104396368137
2905.012137980666,2.3374507,-10.99098643016563
2920.012138693128,2.3366632,-10.99105368963306
2935.01213940559,2.3360333,-10.99133558417635
2950.012140118051,2.3353639,-10.99122392557671
2965.012140830513,2.3346944,-10.99115588485932
2980.012141542975,2.3341827,-10.99126754269602
2995.012142255437,2.3335133,-10.99101164989099
3010.012142967898,2.3330014,-10.99098721713764
3025.01214368036,2.3323319,-10.99080699686015
3040.012144392822,2.3316627,-10.99078886827519
3055.012145105284,2.3309932,-10.99097486438554
3070.012145817745,2.3304026,-10.99093887831344
3085.012146530207,2.3296151,-10.99101795711115
3100.012147242669,2.3289063,-10.99093361962635
3115.012147955131,2.3283157,-10.99080700181925
3130.012148667593,2.3275676,-10.99082406902832
3145.012149380054,2.326977,-10.99089815604059
3160.012150092516,2.3263471,-10.99090420093675
3175.012150804978,2.3255596,-10.99087556006388
3190.01215151744,2.3250084,-10.99093073698692
3205.012152229901,2.3244569,-10.9909199670798
3220.012152942363,2.3237484,-10.99101401589328
3235.012153654825,2.3231182,-10.99076023490456
3250.012154367287,2.3223703,-10.99081251354791
3265.012155079748,2.3217008,-10.99099299831107
3280.01215579221,2.3210709,-10.99109257067878
3295.012156504672,2.3203621,-10.99095490779774
3310.012157217134,2.3196139,-10.99100114065484
3325.012157929596,2.3188264,-10.99092390346572
3340.012158642057,2.318157,-10.99094492053931
3355.012159354519,2.3175664,-10.99086531861946
3370.012160066981,2.3169365,-10.99082486935177
3385.012160779443,2.3161883,-10.99104264964538
3400.012161491904,2.3155978,-10.99093677247349
3415.012162204366,2.315007,-10.99081829421272
3430.012162916828,2.3142984,-10.99094675909614
3445.01216362929,2.3136683,-10.99096068591942
3460.012164341751,2.3128021,-10.99100061715124
3475.012165054213,2.3120933,-10.99096909325748
3490.012165766675,2.311542,-10.99094360586753
3505.012166479137,2.3109908,-10.99115536428033
3520.012167191599,2.3104002,-10.99100692398993
3535.01216790406,2.3097308,-10.99117322049591
3550.012168616522,2.3091009,-10.99102032603804
3565.012169328984,2.308471,-10.99093651854182
3580.012170041446,2.3078802,-10.99099983501118
3595.012170753907,2.3071716,-10.99084587727008
3610.012171466369,2.3067384,-10.99076679478483
3625.012172178831,2.3060296,-10.99073212516469
3640.012172891293,2.305439,-10.99076416887451
3655.012173603754,2.3047302,-10.99073054295549
3670.012174316216,2.3041003,-10.99082065792619
3685.012175028678,2.3035491,-10.99061573583204
3700.01217574114,2.3028796,-10.99045232717891
3715.012176453602,2.3023677,-10.99050802251929
3730.012177166063,2.3016195,-10.99062597791224
3745.012177878525,2.3010683,-10.99073868720661
3760.012178590987,2.3003201,-10.99055583364372
3775.012179303449,2.2996902,-10.99056108610014
3790.01218001591,2.2990603,-10.99054349195425
3805.012180728372,2.2982335,-10.99048805423308
3820.012181440834,2.2977216,-10.99065540473987
3835.012182153296,2.2970915,-10.99075418860969
3850.012182865758,2.2964222,-10.99066959261557
3865.012183578219,2.2955952,-10.99067064687069
3880.012184290681,2.2950046,-10.99064121648269
3895.012185003143,2.294414,-10.99081593075356
3910.012185715605,2.2937841,-10.99081066710737
3925.012186428066,2.2932723,-10.99075182731219
3940.012187140528,2.2925241,-10.99064121660984
3955.01218785299,2.2918546,-10.99077205677798
3970.012188565452,2.2912641,-10.99084561532755
3985.012189277913,2.2907128,-10.99089658832725
4000.012189990375,2.2900827,-10.99080988636603
4015.012190702837,2.2893348,-10.99096777845855
4030.012191415299,2.2887046,-10.99072345715566
4045.012192127761,2.2881141,-10.99085060940182
4060.012192840222,2.2874446,-10.99081014640122
4075.012193552684,2.2868147,-10.99079543336888
4090.012194265146,2.2863421,-10.99085664387114
4105.012194977608,2.2856336,-10.99066485959374
4120.012195690069,2.2850821,-10.99059708730387
4135.012196402531,2.2844522,-10.99078650519751
4150.012197114993,2.2837827,-10.99084430243597
4165.012197827455,2.2833104,-10.99094202976185
4180.012198539916,2.2825229,-10.99092205702517
4195.012199252378,2.2818141,-10.99074236686342
4210.01219996484,2.2811053,-10.99080699240967
4225.012200677302,2.2804754,-10.99080725842121
4240.012201389764,2.2797272,-10.99083721078693
4255.012202102225,2.2790577,-10.9906393809776
4270.012202814687,2.2783098,-10.99061599841036
4285.012203527149,2.2774434,-10.99078413461758
4300.012204239611,2.2766166,-10.99073579210584
4315.012204952072,2.2759078,-10.99053114365263
4330.012205664534,2.2750809,-10.99053639560042
4345.012206376996,2.2742147,-10.99028024479471
4360.012207089458,2.2734272,-10.99037429398967
4375.012207801919,2.2726791,-10.99030178867797
4390.012208514381,2.2718916,-10.99044575000536
4405.012209226843,2.2711828,-10.99051143578308
4420.012209939305,2.2703953,-10.99057737422091
4435.012210651767,2.2696867,-10.99065593053228
4450.012211364228,2.2688203,-10.99064384938661
4465.01221207669,2.2680724,-10.99092469120067
4480.012212789152,2.2674029,-10.99102032298629
4495.012213501614,2.266891,-10.99056502426625
4510.012214214075,2.2661428,-10.99066512318931
4525.012214926537,2.2653947,-10.9907003328434
4540.012215638999,2.2647254,-10.99072450594304
4555.012216351461,2.2639773,-10.99069822865649
4570.012217063922,2.2631111,-10.99088135001112
4585.012217776384,2.2625599,-10.99088003330484
4600.012218488846,2.2616935,-10.99087740726737
4615.012219201308,2.2608273,-10.99091445001056
4630.01221991377,2.2599218,-10.99077074223337
4645.012220626231,2.2593703,-10.99067563293409
4660.012221338693,2.2585042,-10.99054480700749
4675.012222051155,2.2577167,-10.9905905128006
4690.012222763617,2.2569292,-10.99052824766176
4705.012223476078,2.2561417,-10.990675111465
4720.01222418854,2.2554328,-10.99068798441463
4735.012224901002,2.254606,-10.99056765348264
4750.012225613464,2.2538974,-10.99047360136308
4765.012226325925,2.2531493,-10.99057449437892
4780.012227038387,2.2522829,-10.99053062180207
4795.012227750849,2.2513773,-10.99044391475459
4810.012228463311,2.2506292,-10.99055399559551
4825.012229175773,2.2498417,-10.9906772095484
4840.012229888234,2.2490149,-10.99053797145178
4855.012230600696,2.2482274,-10.9904977759886
4870.012231313158,2.2473216,-10.99039609790811
4885.01223202562,2.2465737,-10.99061940506201
4900.012232738081,2.2456286,-10.9905718567702
4915.012233450543,2.2446442,-10.99071136583747
4930.012234163005,2.243896,-10.99062440778292
4945.012234875467,2.2429905,-10.99069875114284
4960.012235587928,2.2421243,-10.99065172482874
4975.01223630039,2.2411792,-10.99071530209623
4990.012237012852,2.2403131,-10.99060995008097
5005.012237725314,2.2393286,-10.99080594374944
5020.012238437776,2.2384624,-10.99066224385595
5035.012239150237,2.237596,-10.99056950551807
5050.012239862699,2.2366118,-10.99048332121125
5065.012240575161,2.2355092,-10.99045337342317
5080.012241287623,2.2345643,-10.99040530747696
5095.012242000084,2.2336586,-10.99058473277158
5110.012242712546,2.2328711,-10.99056529472828
5125.012243425008,2.2319262,-10.9905624101815
5140.01224413747,2.2310994,-10.99044654524254
5155.012244849931,2.2303119,-10.99050197368128
5170.012245562393,2.2296424,-10.9903467088978
5185.012246274855,2.2288942,-10.99021088241194
5200.012246987317,2.2279887,-10.99035827035456
5215.012247699779,2.2271225,-10.99059051737824
5230.01224841224,2.226335,-10.99049383299054
5245.012249124702,2.2254293,-10.99044575178555
5260.012249837164,2.2245631,-10.99044917738353
5275.012250549626,2.2235,-10.99047282138469
5290.012251262087,2.2226732,-10.99024320052564
5305.012251974549,2.2217281,-10.99036378271901
5320.012252687011,2.220783,-10.99032699645061
5335.012253399473,2.2199168,-10.99031439587036
5350.012254111934,2.2190113,-10.99043919317685
5365.012254824396,2.2180269,-10.99055294095893
5380.012255536858,2.2170031,-10.99064437632344
5395.01225624932,2.2161763,-10.99046913918475
5410.012256961782,2.2152705,-10.99049304309393
5425.012257674243,2.2143257,-10.99041476271231
5440.012258386705,2.2133412,-10.99046440883321
5455.012259099167,2.2123568,-10.99049881879963
5470.012259811629,2.2114906,-10.99035905986971
5485.01226052409,2.2105062,-10.99063123520061
5500.012261236552,2.2097974,-10.99050276357788
5515.012261949014,2.2088132,-10.99027840369474
5530.012262661476,2.2079074,-10.99035932435537
5545.012263373937,2.2070413,-10.99026736523295
5560.012264086399,2.2061357,-10.99046887838662
5575.012264798861,2.20523,-10.99041501575389
5590.012265511323,2.2042849,-10.99026342604958
5605.012266223785,2.2033401,-10.9902967937136
5620.012266936246,2.2025132,-10.99026710748658
5635.012267648708,2.2014894,-10.99036720234063
5650.01226836117,2.2005444,-10.99026134169909
5665.012269073632,2.1995206,-10.99039032360113
5680.012269786093,2.1986151,-10.99041265254904
5695.012270498555,2.1975913,-10.99028339611597
5710.012271211017,2.1965675,-10.99029890387687
5725.012271923479,2.19578,-10.99021245521155
5740.01227263594,2.1947169,-10.99005693204592
5755.012273348402,2.1936145,-10.99009607427123
5770.012274060864,2.1927483,-10.99009738360243
5785.012274773326,2.1916063,-10.99010474533202
5800.012275485788,2.1906219,-10.99014783627744
5815.012276198249,2.1896377,-10.99020169217088
5830.012276910711,2.1886532,-10.9902610670409
5845.012277623173,2.1875508,-10.99032201992395
5860.012278335635,2.1864877,-10.99032333306985
5875.012279048096,2.1853063,-10.99021167459737
5890.012279760558,2.1842825,-10.99016096544755
5905.01228047302,2.1832983,-10.99017199933171
5920.012281185482,2.182235,-10.99029731581848
5935.012281897943,2.1810145,-10.99018066873947
5950.012282610405,2.1800694,-10.99003249573218
5965.012283322867,2.1790063,-10.98988484228664
5980.012284035329,2.1780219,-10.98986463113139
5995.012284747791,2.1768408,-10.98990376025958
6010.012285460252,2.1758564,-10.98979105541568
6025.012286172714,2.1749508,-10.98999519142792
6040.012286885176,2.1737301,-10.98978186492031
6055.012287597638,2.1726277,-10.98993608244228
6070.012288310099,2.1714857,-10.99002672244245
6085.012289022561,2.1704226,-10.98986251740773
6100.012289735023,2.1693201,-10.99004221507172
6115.012290447485,2.168139,-10.98997259939306
6130.012291159946,2.166997,-10.98995394959333
6145.012291872408,2.1658158,-10.98975927593721
6160.01229258487,2.1646345,-10.9897500671313
6175.012293297332,2.1634533,-10.98993187724738
6190.012294009794,2.1624296,-10.98995604678663
6205.012294722255,2.1612482,-10.98975822613258
6220.012295434717,2.1601064,-10.98982757757988
6235.012296147179,2.159004,-10.98983991850642
6250.012296859641,2.1579409,-10.98966547558767
6265.012297572102,2.1567991,-10.98974954604367
6280.012298284564,2.155539,-10.98991270254532
6295.012298997026,2.1545546,-10.98966311505311
6310.012299709488,2.1535308,-10.98970016504423
6325.012300421949,2.152389,-10.98980366731287
6340.012301134411,2.1512077,-10.98962318216825
6355.012301846873,2.1501839,-10.98969227574203
6370.012302559335,2.1490421,-10.98967809498709
6385.012303271797,2.1477821,-10.9897950052802
6400.012303984258,2.1465616,-10.98990613007656
6415.01230469672,2.1454589,-10.9899329247632
6430.012305409182,2.1441596,-10.98988642602171
6445.012306121644,2.1430178,-10.98975349171203
6460.012306834105,2.1417577,-10.98984728303346
6475.012307546567,2.1405766,-10.9897524392371
6490.012308259029,2.1393166,-10.98970172881572
6505.012308971491,2.1380172,-10.98964735399632
6520.012309683952,2.1370327,-10.98964656893166
6535.012310396414,2.1357727,-10.98985569266034
6550.012311108876,2.1346309,-10.98981969476267
6565.012311821338,2.1333315,-10.98975455168919
6580.0123125338,2.1322291,-10.98994553818626
6595.012313246261,2.1310477,-10.98997390999583
6610.012313958723,2.1299846,-10.98993345856647
6625.012314671185,2.1288035,-10.98972643393845
6640.012315383647,2.1274254,-10.9896652198758
6655.012316096108,2.1264017,-10.98992741278022
6670.01231680857,2.125181,-10.9895987485248
6685.012317521032,2.1239603,-10.98965812097884
6700.012318233494,2.1230154,-10.98976793542675
6715.012318945955,2.1217947,-10.98983256783945
6730.012319658417,2.120574,-10.98985069299118
6745.012320370879,2.1192749,-10.98966232668238
6760.012321083341,2.1180542,-10.98983124642838
6775.012321795803,2.1167941,-10.9899597247904
6790.012322508264,2.1156523,-10.99005325429646
6805.012323220726,2.1145103,-10.98989535686337
6820.012323933188,2.1132898,-10.98975612207282
6835.01232464565,2.1120298,-10.98990087151663
6850.012325358111,2.110888,-10.98970042418932
6865.012326070573,2.1097853,-10.9896147750845
6880.012326783035,2.1086042,-10.98962606544346
6895.012327495497,2.1073442,-10.98959401702884
6910.012328207958,2.1062417,-10.98952440249459
6925.01232892042,2.1051393,-10.98958167444927
6940.012329632882,2.1039186,-10.9896725719415
6955.012330345344,2.1028554,-10.98984964089772
6970.012331057806,2.1016347,-10.98958167254192
6985.012331770267,2.1003354,-10.9897001577963
7000.012332482729,2.099036,-10.98979262681657
7015.012333195191,2.0977366,-10.98966837030697
7030.012333907653,2.0963192,-10.9896223944333
7045.012334620114,2.0952168,-10.98976137020591
7060.012335332576,2.0939174,-10.98999361672096
7075.012336045038,2.0926573,-10.99004116590287
7090.0123367575,2.0913579,-10.98997233452593
7105.012337469961,2.0899012,-10.98985306573277
7120.012338182423,2.0884836,-10.98982731690892
7135.012338894885,2.0872235,-10.98971407762597
7150.012339607347,2.0858061,-10.98965392277755
7165.012340319809,2.0844674,-10.98956250254466
7180.01234103227,2.0830498,-10.98944505743102
7195.012341744732,2.0816324,-10.9895060128572
7210.012342457194,2.080333,-10.98965470657064
7225.012343169656,2.0789549,-10.98971355615687
7240.012343882117,2.0775769,-10.98949891383309
7255.012344594579,2.0761986,-10.98949812686108
7270.012345307041,2.0746632,-10.98948551000478
7285.012346019503,2.0732455,-10.98948735428367
7300.012346731965,2.0719855,-10.98956223157401
7315.012347444426,2.0705287,-10.98960558230031
7330.012348156888,2.0692294,-10.98956143951574
7345.01234886935,2.0678513,-10.98945583484038
7360.012349581812,2.0663157,-10.98944689929393
7375.012350294273,2.0649769,-10.98943061269904
7390.012351006735,2.0635593,-10.98945845553728
7405.012351719197,2.0619843,-10.98953779818488
7420.012352431659,2.0607638,-10.98942115619212
7435.01235314412,2.0593069,-10.98931763790175
7450.012353856582,2.0578499,-10.98953648669202
7465.012354569044,2.0563538,-10.98953647880831
7480.012355281506,2.0549362,-10.98950705821136
7495.012355993968,2.0535581,-10.98922201209249
7510.012356706429,2.0522194,-10.98906621426868
7525.012357418891,2.050802,-10.98923356770006
7540.012358131353,2.04966,-10.98916447285471
7555.012358843815,2.0481639,-10.98930792339416
7570.012359556276,2.0467069,-10.98920651030795
7585.012360268738,2.0452106,-10.9893609808715
7600.0123609812,2.0437932,-10.98936939456739
7615.012361693662,2.0422182,-10.98918759843853
7630.012362406123,2.0408401,-10.98907961580816
7645.012363118585,2.0393438,-10.98910615465578
7660.012363831047,2.0378082,-10.98912243184108
7675.012364543509,2.0363119,-10.98912978886588
7690.012365255971,2.0347764,-10.98907489028857
7705.012365968432,2.0332012,-10.98891463308386
7720.012366680894,2.0315869,-10.98902181500931
7735.012367393356,2.0301695,-10.98905413274154
7750.012368105818,2.0286338,-10.98906357958456
7765.012368818279,2.0270195,-10.98913031809152
7780.012369530741,2.0255232,-10.98912795488667
7795.012370243203,2.0238695,-10.98917235681633
7810.012370955665,2.0224125,-10.98923987593747
7825.012371668126,2.0206409,-10.98926009675662
7840.012372380588,2.0191445,-10.98925984079044
7855.01237309305,2.0173333,-10.98923566794512
7870.012373805512,2.0157189,-10.98932736436207
7885.012374517974,2.0141439,-10.98943480403388
7900.012375230435,2.0124507,-10.9893326085533
7915.012375942897,2.0109153,-10.98939277268416
7930.012376655359,2.0092614,-10.9895301793447
7945.012377367821,2.007529,-10.98969988924163
7960.012378080282,2.0061114,-10.98962108904396
7975.012378792744,2.0044971,-10.98953306783334
7990.012379505206,2.0028434,-10.98953201790154
8005.012380217668,2.0012684,-10.98947999382564
8020.012380930129,1.9995753,-10.98948551445526
8035.012381642591,1.9979216,-10.98938752099068
8050.012382355053,1.9963859,-10.98931501720486
8065.012383067515,1.994614,-10.98931395671907
8080.012383779977,1.9929209,-10.98943481229906
8095.012384492438,1.9911884,-10.98934312084122
8110.0123852049,1.9895347,-10.98941853066328
8125.012385917362,1.9880384,-10.98925852878896
8140.012386629824,1.9864634,-10.98943139941674
8155.012387342285,1.9848098,-10.98947580223649
8170.012388054747,1.983156,-10.98930371985228
8185.012388767209,1.9813447,-10.98935362778855
8200.01238947967,1.9796516,-10.9893381307088
8215.012390192132,1.9779979,-10.98923698045523
8230.012390904594,1.976226,-10.98924171665597
8245.012391617056,1.9744542,-10.98918102876721
8260.012392329518,1.9724854,-10.98926063144999
8275.01239304198,1.9705954,-10.98937570560224
8290.012393754441,1.9687448,-10.9892616787115
8305.012394466903,1.9669335,-10.98938936043761
8320.012395179365,1.9651617,-10.98930923272536
8335.012395891827,1.9631536,-10.98942877159907
8350.012396604288,1.9612635,-10.98915685960942
8365.01239731675,1.9594129,-10.98941300876209
8380.012398029212,1.9574442,-10.98942771238485
8395.012398741674,1.9556724,-10.98940564766828
8410.012399454135,1.9539398,-10.98951020940546
8425.012400166597,1.9520105,-10.98957117271535
8440.012400879059,1.9500811,-10.98957824974139
8455.01240159152,1.9481124,-10.98952860501922
8470.012402303983,1.9462224,-10.98953884951539
8485.012403016444,1.9443717,-10.98946791471448
8500.012403728906,1.9423243,-10.98929162688106
8515.012404441368,1.9405918,-10.98951572711048
8530.01240515383,1.9386624,-10.9891805011946
8545.012405866291,1.9367725,-10.98942377510883
8560.012406578753,1.9348431,-10.98946528994857
8575.012407291215,1.9329137,-10.98947317022265
8590.012408003677,1.9308662,-10.98943323276015
8605.012408716138,1.9289368,-10.98967178776693
8620.0124094286,1.9269681,-10.98962554282996
8635.012410141062,1.9250387,-10.98959428774518
8650.012410853524,1.92307,-10.98946029422127
8665.012411565986,1.9210619,-10.98946948509811
8680.012412278447,1.9190931,-10.98955277163387
8695.012412990909,1.9172031,-10.98946423658355
8710.01241370337,1.9152738,-10.98944059906738
8725.012414415833,1.9134232,-10.98941537196693
8740.012415128294,1.9114544,-10.98922621067526
8755.012415840756,1.9095644,-10.98930870451697
8770.012416553218,1.9074382,-10.9893197446318
8785.01241726568,1.9053906,-10.98923250708711
8800.012417978141,1.9035007,-10.98907121037745
8815.012418690603,1.9014138,-10.98921675543991
8830.012419403065,1.8993663,-10.9892304125641
8845.012420115527,1.8973188,-10.9892737594757
8860.012420827989,1.8952713,-10.98917393254054
8875.01242154045,1.8933814,-10.98905281222057
8890.012422252912,1.8914913,-10.98919126944869
8905.012422965374,1.8894044,-10.98918838045143
8920.012423677836,1.887357,-10.98939462103205
8935.012424390297,1.8852701,-10.98930108745698
8950.01242510276,1.8831832,-10.98928663674864
8965.012425815221,1.881057,-10.98915133859833
8980.012426527683,1.8788913,-10.98925143307091
8995.012427240144,1.8768045,-10.98939619319587
9010.012427952606,1.8747571,-10.98948604139209
9025.012428665068,1.8723158,-10.98941090330361
9040.01242937753,1.8703077,-10.98939697800622
9055.012430089992,1.8683783,-10.98962738303983
9070.012430802451,1.8663309,-10.98953228315014
9085.012431514917,1.8641652,-10.98943638726033
9100.012432227377,1.8620783,-10.98954673093388
9115.01243293984,1.8599521,-10.98949445216337
9130.0124336523,1.8576684,-10.98961478042508
9145.012434364762,1.8555027,-10.98946555532434
9160.012435077224,1.8531796,-10.98976741344904
9175.012435789686,1.8510534,-10.98961766331882
9190.012436502147,1.8487302,-10.98975637905625
9205.012437214607,1.8464859,-10.98967940965886
9220.012437927073,1.8442415,-10.98958613561036
9235.012438639533,1.8419578,-10.98945320511537
9250.012439351996,1.8397921,-10.98951205343004
9265.012440064456,1.8375084,-10.98943533058924
9280.012440776918,1.8352641,-10.98934732730769
9295.01244148938,1.8329803,-10.98939618683804
9310.012442201842,1.8305784,-10.98936623790555
9325.012442914303,1.8282948,-10.98934574586144
9340.012443626763,1.8258928,-10.98947973480771
9355.012444339229,1.8235303,-10.98940748965835
9370.012445051689,1.8212466,-10.98940538979476
9385.01244576415,1.8188448,-10.9895766821552
9400.012446476612,1.816561,-10.98936729063479
9415.012447189074,1.8140804,-10.98961109644494
9430.012447901536,1.8116785,-10.98964393691783
9445.012448613998,1.8092767,-10.98954305725343
9460.01244932646,1.8069142,-10.98958193194132
9475.01245003892,1.8044729,-10.98947027702923
9490.012450751385,1.8023467,-10.98935153224829
9505.012451463845,1.7998267,-10.98944006539126
9520.012452176306,1.7974248,-10.98955225194497
9535.012452888768,1.7952592,-10.98957484703159
9550.01245360123,1.7930542,-10.98954882990737
9565.012454313692,1.7908099,-10.98969253971907
9580.012455026152,1.7885655,-10.98978762994486
9595.012455738615,1.7861637,-10.98967020962675
9610.012456451075,1.7834861,-10.98969149144031
9625.01245716354,1.7810843,-10.98951888466242
9640.012457876,1.7786037,-10.98961215998249
9655.012458588462,1.7767924,-10.98963972968842
9670.012459300924,1.7758474,-10.98976110228702
9685.012460013386,1.7738787,-10.98978081219107
9700.012460725848,1.771713,-10.98941984393633
9715.012461438308,1.7692325,-10.98940197805685
9730.012462150771,1.7669094,-10.98937805329398
9745.012462863231,1.7645862,-10.9893959313805
9760.012463575697,1.7621844,-10.98950915604044
9775.012464288156,1.7597431,-10.98949076703884
9790.012465000618,1.7573806,-10.9894350704269
9805.01246571308,1.7549788,-10.98930449995784
9820.012466425542,1.7525375,-10.98938173803706
9835.012467138004,1.7498994,-10.98935521521117
9850.012467850464,1.7475764,-10.98946739464411
9865.012468562927,1.7452137,-10.98931081124701
9880.012469275389,1.7428119,-10.98935651780306
9895.012469987852,1.7403313,-10.98916158169579
9910.012470700312,1.737772,-10.9892149165016
9925.012471412774,1.7374569,-10.9893037250657
9940.012472125236,1.7360789,-10.98938174808242
9955.012472837698,1.7339132,-10.98938568154374
9970.01247355016,1.7316688,-10.9891192908195
9985.01247426262,1.729267,-10.98906070368442
10000.01247497508,1.7271408,-10.98907094334865
10015.01247568754,1.7246208,-10.98886550296433
10030.01247640001,1.7221402,-10.98894903999853
10045.01247711247,1.7196201,-10.98888704354151
10060.01247782493,1.7171789,-10.98901341034154
10075.01247853739,1.7146983,-10.98916657424417
10090.01247924985,1.7120996,-10.98923592874324
10105.01247996232,1.7096189,-10.98912217104295
10120.01248067478,1.7071778,-10.98924354923645
10135.01248138724,1.7046183,-10.98930660795945
10150.0124820997,1.7019409,-10.9892009891697
10165.01248281216,1.6992633,-10.98916500322476
10180.01248352462,1.6967827,-10.98913767638788
10195.01248423709,1.6943809,-10.98919705787005
10210.01248494955,1.6920577,-10.98936729915428
10225.01248566201,1.6894196,-10.9893236787289
10240.01248637447,1.6868997,-10.98929478710328
10255.01248708693,1.6841041,-10.98940537847783
10270.01248779939,1.6815053,-10.98924013241227
10285.01248851186,1.6788672,-10.98913951291021
10300.01248922432,1.6761503,-10.98937439016753
10315.01248993678,1.6734334,-10.9894939250994
10330.01249064924,1.6708741,-10.98949944178716
10345.0124913617,1.6680391,-10.98953543790463
10360.01249207417,1.6653616,-10.98945109927542
10375.01249278663,1.6624873,-10.98955250969134
10390.01249349909,1.6598098,-10.98956276792043
10405.01249421155,1.6570141,-10.98959585444127
10420.01249492401,1.6542974,-10.98956329040677
10435.01249563647,1.6515805,-10.98963263791222
10450.01249634894,1.6488636,-10.9894794684147
10465.0124970614,1.645871,-10.98960952377249
10480.01249777386,1.6431148,-10.98934811186373
10495.01249848632,1.6404374,-10.98943034325427
10510.01249919878,1.6376023,-10.98956669883861
10525.01249991125,1.6349249,-10.98964813448335
10540.01250062371,1.6320505,-10.98955198860372
10555.01250133617,1.6290187,-10.98961030095344
10570.01250204863,1.6261836,-10.98942509054354
10585.01250276109,1.6233881,-10.98947160072912
10600.01250347355,1.6204743,-10.98957930882845
10615.01250418602,1.6174818,-10.98940485561001
10630.01250489848,1.6145287,-10.98925510929449
10645.01250561094,1.6115756,-10.98929004759646
10660.0125063234,1.608465,-10.98935310517505
10675.01250703586,1.6054331,-10.9893131763592
10690.01250774832,1.6025587,-10.98931265018532
10705.01250846079,1.5994481,-10.98931396460278
10720.01250917325,1.5964557,-10.98933760110169
10735.01250988571,1.5934238,-10.98926903713502
10750.01251059817,1.5904313,-10.98928033308887
10765.01251131063,1.5874388,-10.98919653233195
10780.0125120231,1.5843282,-10.98918050183039
10795.01251273556,1.5813751,-10.98926640524834
10810.01251344802,1.5781463,-10.98920913672689
10825.01251416048,1.5749964,-10.98931869342844
10840.01251487294,1.5718464,-10.98954857533992
10855.0125155854,1.568657,-10.98954988276377
10870.01251629787,1.5655857,-10.98932946473428
10885.01251701033,1.5623176,-10.98923776539273
10900.01251772279,1.5592071,-10.98930266457992
10915.01251843525,1.5559783,-10.98932998429602
10930.01251914771,1.5527496,-10.989345222485
10945.01251986017,1.5495602,-10.9894776326553
10960.01252057264,1.5462921,-10.98920677085176
10975.0125212851,1.5432602,-10.98921990459951
10990.01252199756,1.5401102,-10.98929320095223
11005.01252271002,1.5367634,-10.98910483540637
11020.01252342248,1.533574,-10.98908934175985
11035.01252413495,1.5304635,-10.98903758827313
11050.01252484741,1.5274709,-10.98935152334733
11065.01252555987,1.524124,-10.9892585286618
11080.01252627233,1.5207379,-10.98926956496194
11095.01252698479,1.5174698,-10.98931343219822
11110.01252769725,1.5140835,-10.98951861203873
11125.01252840972,1.5106972,-10.989407225427
11140.01252912218,1.5071535,-10.98945424932512
11155.01252983464,1.5036886,-10.98942982458262
11170.0125305471,1.500263,-10.98963683700362
11171.4925306174,1.4999479,-10.98963263353391
11171.49453061749,1.4999479,-10.98984856858637
